          Evm          Svm            E11          E22          E33          E23          E13          E12         SDEV11       SDEV22       SDEV33       SDEV23       SDEV13       SDEV12      TEMP
  0.00000E+00  0.11790E+03    0.00000E+00  0.00000E+00  0.00000E+00  0.00000E+00  0.00000E+00  0.00000E+00    0.68079E+02 -0.63246E-01 -0.68016E+02 -0.10050E+01 -0.10873E+00  0.14465E+01      298.00
  0.11543E-01  0.11793E+03    0.10000E-01  0.55511E-18 -0.10000E-01  0.00000E+00  0.00000E+00  0.00000E+00    0.68249E+02 -0.36684E+00 -0.67882E+02 -0.99204E+00 -0.93204E-01  0.14308E+01      298.00
  0.23086E-01  0.11795E+03    0.20000E-01  0.11102E-17 -0.20000E-01  0.00000E+00  0.00000E+00  0.00000E+00    0.68406E+02 -0.66229E+00 -0.67744E+02 -0.98646E+00 -0.87689E-01  0.14361E+01      298.00
  0.34629E-01  0.11800E+03    0.30000E-01  0.16653E-17 -0.30000E-01  0.00000E+00  0.00000E+00  0.00000E+00    0.68582E+02 -0.95940E+00 -0.67622E+02 -0.98756E+00 -0.90642E-01  0.14527E+01      298.00
  0.46171E-01  0.11809E+03    0.40000E-01  0.22204E-17 -0.40000E-01  0.00000E+00  0.00000E+00  0.00000E+00    0.68777E+02 -0.12543E+01 -0.67522E+02 -0.99338E+00 -0.90653E-01  0.14754E+01      298.00
  0.57713E-01  0.11820E+03    0.50000E-01  0.27756E-17 -0.50000E-01  0.00000E+00  0.00000E+00  0.00000E+00    0.68979E+02 -0.15527E+01 -0.67427E+02 -0.99981E+00 -0.93946E-01  0.15029E+01      298.00
  0.69254E-01  0.11832E+03    0.60000E-01  0.33307E-17 -0.60000E-01  0.00000E+00  0.00000E+00  0.00000E+00    0.69195E+02 -0.18520E+01 -0.67343E+02 -0.10095E+01 -0.98269E-01  0.15383E+01      298.00
  0.80793E-01  0.11847E+03    0.70000E-01  0.38858E-17 -0.70000E-01  0.00000E+00  0.00000E+00  0.00000E+00    0.69424E+02 -0.21523E+01 -0.67271E+02 -0.10218E+01 -0.10345E+00  0.15805E+01      298.00
  0.92332E-01  0.11864E+03    0.80000E-01  0.44409E-17 -0.80000E-01  0.00000E+00  0.00000E+00  0.00000E+00    0.69663E+02 -0.24535E+01 -0.67210E+02 -0.10363E+01 -0.10953E+00  0.16298E+01      298.00
  0.10387E+00  0.11883E+03    0.90000E-01  0.49960E-17 -0.90000E-01  0.00000E+00  0.00000E+00  0.00000E+00    0.69914E+02 -0.27554E+01 -0.67159E+02 -0.10530E+01 -0.11655E+00  0.16864E+01      298.00
  0.11540E+00  0.11904E+03    0.10000E+00  0.55511E-17 -0.10000E+00  0.00000E+00  0.00000E+00  0.00000E+00    0.70176E+02 -0.30581E+01 -0.67118E+02 -0.10715E+01 -0.12454E+00  0.17504E+01      298.00
  0.12694E+00  0.11927E+03    0.11000E+00  0.61062E-17 -0.11000E+00  0.00000E+00  0.00000E+00  0.00000E+00    0.70448E+02 -0.33614E+01 -0.67086E+02 -0.10917E+01 -0.13350E+00  0.18222E+01      298.00
  0.13847E+00  0.11952E+03    0.12000E+00  0.66613E-17 -0.12000E+00  0.00000E+00  0.00000E+00  0.00000E+00    0.70728E+02 -0.36650E+01 -0.67063E+02 -0.11133E+01 -0.14344E+00  0.19018E+01      298.00
  0.15000E+00  0.11978E+03    0.13000E+00  0.72164E-17 -0.13000E+00  0.00000E+00  0.00000E+00  0.00000E+00    0.71018E+02 -0.39689E+01 -0.67049E+02 -0.11362E+01 -0.15434E+00  0.19895E+01      298.00
  0.16152E+00  0.12006E+03    0.14000E+00  0.77716E-17 -0.14000E+00  0.00000E+00  0.00000E+00  0.00000E+00    0.71314E+02 -0.42728E+01 -0.67042E+02 -0.11601E+01 -0.16617E+00  0.20856E+01      298.00
  0.17305E+00  0.12036E+03    0.15000E+00  0.83267E-17 -0.15000E+00  0.00000E+00  0.00000E+00  0.00000E+00    0.71618E+02 -0.45764E+01 -0.67042E+02 -0.11847E+01 -0.17888E+00  0.21900E+01      298.00
  0.18457E+00  0.12066E+03    0.16000E+00  0.88818E-17 -0.16000E+00  0.00000E+00  0.00000E+00  0.00000E+00    0.71928E+02 -0.48794E+01 -0.67048E+02 -0.12098E+01 -0.19240E+00  0.23031E+01      298.00
  0.19609E+00  0.12103E+03    0.17000E+00  0.94369E-17 -0.17000E+00  0.00000E+00  0.00000E+00  0.00000E+00    0.72238E+02 -0.51030E+01 -0.67135E+02 -0.12505E+01 -0.13439E+00  0.23987E+01      298.00
  0.20760E+00  0.12137E+03    0.18000E+00  0.99920E-17 -0.18000E+00  0.00000E+00  0.00000E+00  0.00000E+00    0.72557E+02 -0.53995E+01 -0.67157E+02 -0.12815E+01 -0.14431E+00  0.25331E+01      298.00
  0.21911E+00  0.12170E+03    0.19000E+00  0.10547E-16 -0.19000E+00  0.00000E+00  0.00000E+00  0.00000E+00    0.72878E+02 -0.56982E+01 -0.67180E+02 -0.13101E+01 -0.15792E+00  0.26765E+01      298.00
  0.23062E+00  0.12205E+03    0.20000E+00  0.11102E-16 -0.20000E+00  0.00000E+00  0.00000E+00  0.00000E+00    0.73201E+02 -0.59956E+01 -0.67205E+02 -0.13380E+01 -0.17285E+00  0.28293E+01      298.00
  0.24212E+00  0.12240E+03    0.21000E+00  0.11657E-16 -0.21000E+00  0.00000E+00  0.00000E+00  0.00000E+00    0.73525E+02 -0.62911E+01 -0.67234E+02 -0.13652E+01 -0.18913E+00  0.29917E+01      298.00
  0.25362E+00  0.12275E+03    0.22000E+00  0.12212E-16 -0.22000E+00  0.00000E+00  0.00000E+00  0.00000E+00    0.73850E+02 -0.65845E+01 -0.67265E+02 -0.13910E+01 -0.20654E+00  0.31632E+01      298.00
  0.26512E+00  0.12311E+03    0.23000E+00  0.12768E-16 -0.23000E+00  0.00000E+00  0.00000E+00  0.00000E+00    0.74174E+02 -0.68754E+01 -0.67299E+02 -0.14155E+01 -0.22501E+00  0.33438E+01      298.00
  0.27661E+00  0.12348E+03    0.24000E+00  0.13323E-16 -0.24000E+00  0.00000E+00  0.00000E+00  0.00000E+00    0.74497E+02 -0.71634E+01 -0.67334E+02 -0.14382E+01 -0.24438E+00  0.35333E+01      298.00
  0.28810E+00  0.12384E+03    0.25000E+00  0.13878E-16 -0.25000E+00  0.00000E+00  0.00000E+00  0.00000E+00    0.74819E+02 -0.74480E+01 -0.67371E+02 -0.14591E+01 -0.26447E+00  0.37314E+01      298.00
  0.29958E+00  0.12421E+03    0.26000E+00  0.14433E-16 -0.26000E+00  0.00000E+00  0.00000E+00  0.00000E+00    0.75150E+02 -0.77528E+01 -0.67397E+02 -0.14514E+01 -0.31176E+00  0.39001E+01      298.00
  0.31106E+00  0.12458E+03    0.27000E+00  0.14988E-16 -0.27000E+00  0.00000E+00  0.00000E+00  0.00000E+00    0.75452E+02 -0.80020E+01 -0.67450E+02 -0.15006E+01 -0.30625E+00  0.41597E+01      298.00
  0.32253E+00  0.12496E+03    0.28000E+00  0.15543E-16 -0.28000E+00  0.00000E+00  0.00000E+00  0.00000E+00    0.75783E+02 -0.82917E+01 -0.67491E+02 -0.15165E+01 -0.30729E+00  0.43777E+01      298.00
  0.33399E+00  0.12532E+03    0.29000E+00  0.16098E-16 -0.29000E+00  0.00000E+00  0.00000E+00  0.00000E+00    0.76086E+02 -0.85577E+01 -0.67528E+02 -0.15297E+01 -0.32947E+00  0.46106E+01      298.00
  0.34545E+00  0.12569E+03    0.30000E+00  0.16653E-16 -0.30000E+00  0.00000E+00  0.00000E+00  0.00000E+00    0.76387E+02 -0.88028E+01 -0.67584E+02 -0.15328E+01 -0.33745E+00  0.48059E+01      298.00
  0.35691E+00  0.12605E+03    0.31000E+00  0.17208E-16 -0.31000E+00  0.00000E+00  0.00000E+00  0.00000E+00    0.76683E+02 -0.90565E+01 -0.67626E+02 -0.15455E+01 -0.35631E+00  0.50529E+01      298.00
  0.36836E+00  0.12639E+03    0.32000E+00  0.17764E-16 -0.32000E+00  0.00000E+00  0.00000E+00  0.00000E+00    0.76968E+02 -0.93089E+01 -0.67659E+02 -0.15525E+01 -0.37912E+00  0.53076E+01      298.00
  0.37980E+00  0.12673E+03    0.33000E+00  0.18319E-16 -0.33000E+00  0.00000E+00  0.00000E+00  0.00000E+00    0.77239E+02 -0.95337E+01 -0.67705E+02 -0.15494E+01 -0.40926E+00  0.55417E+01      298.00
  0.39124E+00  0.12708E+03    0.34000E+00  0.18874E-16 -0.34000E+00  0.00000E+00  0.00000E+00  0.00000E+00    0.77518E+02 -0.97712E+01 -0.67747E+02 -0.15543E+01 -0.42479E+00  0.58036E+01      298.00
  0.40267E+00  0.12742E+03    0.35000E+00  0.19429E-16 -0.35000E+00  0.00000E+00  0.00000E+00  0.00000E+00    0.77782E+02 -0.10002E+02 -0.67780E+02 -0.15575E+01 -0.44496E+00  0.60782E+01      298.00
  0.41409E+00  0.12775E+03    0.36000E+00  0.19984E-16 -0.36000E+00  0.00000E+00  0.00000E+00  0.00000E+00    0.78036E+02 -0.10203E+02 -0.67833E+02 -0.15456E+01 -0.48569E+00  0.63402E+01      298.00
  0.42551E+00  0.12809E+03    0.37000E+00  0.20539E-16 -0.37000E+00  0.00000E+00  0.00000E+00  0.00000E+00    0.78292E+02 -0.10418E+02 -0.67874E+02 -0.15452E+01 -0.49617E+00  0.66168E+01      298.00
  0.43692E+00  0.12846E+03    0.38000E+00  0.21094E-16 -0.38000E+00  0.00000E+00  0.00000E+00  0.00000E+00    0.78578E+02 -0.10662E+02 -0.67916E+02 -0.15213E+01 -0.52788E+00  0.69109E+01      298.00
  0.44832E+00  0.12878E+03    0.39000E+00  0.21649E-16 -0.39000E+00  0.00000E+00  0.00000E+00  0.00000E+00    0.78819E+02 -0.10869E+02 -0.67950E+02 -0.15163E+01 -0.51838E+00  0.71708E+01      298.00
  0.45972E+00  0.12909E+03    0.40000E+00  0.22204E-16 -0.40000E+00  0.00000E+00  0.00000E+00  0.00000E+00    0.79050E+02 -0.11057E+02 -0.67993E+02 -0.15082E+01 -0.50739E+00  0.74363E+01      298.00
  0.47111E+00  0.12936E+03    0.41000E+00  0.22760E-16 -0.41000E+00  0.00000E+00  0.00000E+00  0.00000E+00    0.79246E+02 -0.11250E+02 -0.67996E+02 -0.15188E+01 -0.49575E+00  0.77612E+01      298.00
  0.48249E+00  0.12967E+03    0.42000E+00  0.23315E-16 -0.42000E+00  0.00000E+00  0.00000E+00  0.00000E+00    0.79463E+02 -0.11425E+02 -0.68038E+02 -0.15052E+01 -0.50000E+00  0.80551E+01      298.00
  0.49387E+00  0.12995E+03    0.43000E+00  0.23870E-16 -0.43000E+00  0.00000E+00  0.00000E+00  0.00000E+00    0.79658E+02 -0.11575E+02 -0.68084E+02 -0.14954E+01 -0.48922E+00  0.83325E+01      298.00
  0.50524E+00  0.13025E+03    0.44000E+00  0.24425E-16 -0.44000E+00  0.00000E+00  0.00000E+00  0.00000E+00    0.79873E+02 -0.11754E+02 -0.68119E+02 -0.14696E+01 -0.44352E+00  0.85660E+01      298.00
  0.51660E+00  0.13047E+03    0.45000E+00  0.24980E-16 -0.45000E+00  0.00000E+00  0.00000E+00  0.00000E+00    0.80012E+02 -0.11867E+02 -0.68146E+02 -0.14655E+01 -0.44771E+00  0.88698E+01      298.00
  0.52796E+00  0.13076E+03    0.46000E+00  0.25535E-16 -0.46000E+00  0.00000E+00  0.00000E+00  0.00000E+00    0.80204E+02 -0.11987E+02 -0.68217E+02 -0.14476E+01 -0.43024E+00  0.90841E+01      298.00
  0.53931E+00  0.13092E+03    0.47000E+00  0.26090E-16 -0.47000E+00  0.00000E+00  0.00000E+00  0.00000E+00    0.80299E+02 -0.12110E+02 -0.68189E+02 -0.14345E+01 -0.42033E+00  0.94195E+01      298.00
  0.55065E+00  0.13116E+03    0.48000E+00  0.26645E-16 -0.48000E+00  0.00000E+00  0.00000E+00  0.00000E+00    0.80445E+02 -0.12201E+02 -0.68244E+02 -0.14225E+01 -0.43233E+00  0.96731E+01      298.00
  0.56199E+00  0.13143E+03    0.49000E+00  0.27200E-16 -0.49000E+00  0.00000E+00  0.00000E+00  0.00000E+00    0.80614E+02 -0.12314E+02 -0.68300E+02 -0.13984E+01 -0.36943E+00  0.98983E+01      298.00
  0.57332E+00  0.13154E+03    0.50000E+00  0.27756E-16 -0.50000E+00  0.00000E+00  0.00000E+00  0.00000E+00    0.80668E+02 -0.12400E+02 -0.68267E+02 -0.13802E+01 -0.35067E+00  0.10220E+02      298.00
