          Evm          Svm            E11          E22          E33          E23          E13          E12         SCAU11       SCAU22       SCAU33       SCAU23       SCAU13       SCAU12      TEMP
  0.00000E+00  0.20155E+03    0.00000E+00  0.00000E+00  0.00000E+00  0.00000E+00  0.00000E+00  0.00000E+00    0.00000E+00  0.00000E+00 -0.20123E+03 -0.39148E+01 -0.52079E+01  0.11250E+01
  0.99838E-02  0.26919E+03    0.57216E-02  0.42784E-02 -0.10000E-01  0.00000E+00  0.00000E+00  0.00000E+00    0.00000E+00  0.00000E+00 -0.26905E+03 -0.31249E+01 -0.36494E+01  0.14529E+01
  0.19979E-01  0.31095E+03    0.11225E-01  0.87755E-02 -0.20000E-01  0.00000E+00  0.00000E+00  0.00000E+00    0.00000E+00  0.00000E+00 -0.31076E+03 -0.38806E+01 -0.46106E+01  0.16747E+01
  0.29973E-01  0.34412E+03    0.16734E-01  0.13266E-01 -0.30000E-01  0.00000E+00  0.00000E+00  0.00000E+00    0.00000E+00  0.00000E+00 -0.34388E+03 -0.45988E+01 -0.56062E+01  0.18537E+01
  0.39965E-01  0.37246E+03    0.22245E-01  0.17755E-01 -0.40000E-01  0.00000E+00  0.00000E+00  0.00000E+00    0.00000E+00  0.00000E+00 -0.37218E+03 -0.51229E+01 -0.63400E+01  0.20067E+01
  0.49958E-01  0.39691E+03    0.27747E-01  0.22253E-01 -0.50000E-01  0.00000E+00  0.00000E+00  0.00000E+00    0.00000E+00  0.00000E+00 -0.39659E+03 -0.56086E+01 -0.69861E+01  0.21427E+01
  0.59950E-01  0.41836E+03    0.33231E-01  0.26769E-01 -0.60000E-01  0.00000E+00  0.00000E+00  0.00000E+00    0.00000E+00  0.00000E+00 -0.41802E+03 -0.57741E+01 -0.74516E+01  0.22572E+01
  0.69942E-01  0.43692E+03    0.38693E-01  0.31307E-01 -0.70000E-01  0.00000E+00  0.00000E+00  0.00000E+00    0.00000E+00  0.00000E+00 -0.43658E+03 -0.57511E+01 -0.76426E+01  0.24013E+01
  0.79934E-01  0.45230E+03    0.44125E-01  0.35875E-01 -0.80000E-01  0.00000E+00  0.00000E+00  0.00000E+00    0.00000E+00  0.00000E+00 -0.45196E+03 -0.59259E+01 -0.79294E+01  0.24966E+01
  0.89926E-01  0.46517E+03    0.49528E-01  0.40472E-01 -0.90000E-01  0.00000E+00  0.00000E+00  0.00000E+00    0.00000E+00  0.00000E+00 -0.46483E+03 -0.60626E+01 -0.79355E+01  0.26162E+01
  0.99919E-01  0.47666E+03    0.54914E-01  0.45086E-01 -0.10000E+00  0.00000E+00  0.00000E+00  0.00000E+00    0.00000E+00  0.00000E+00 -0.47632E+03 -0.60172E+01 -0.79393E+01  0.27652E+01
  0.10991E+00  0.48663E+03    0.60273E-01  0.49727E-01 -0.11000E+00  0.00000E+00  0.00000E+00  0.00000E+00    0.00000E+00  0.00000E+00 -0.48629E+03 -0.60208E+01 -0.79574E+01  0.28951E+01
  0.11991E+00  0.49503E+03    0.65602E-01  0.54398E-01 -0.12000E+00  0.00000E+00  0.00000E+00  0.00000E+00    0.00000E+00  0.00000E+00 -0.49470E+03 -0.61883E+01 -0.78603E+01  0.29904E+01
  0.12990E+00  0.50205E+03    0.70916E-01  0.59084E-01 -0.13000E+00  0.00000E+00  0.00000E+00  0.00000E+00    0.00000E+00  0.00000E+00 -0.50171E+03 -0.63607E+01 -0.80148E+01  0.31339E+01
  0.13989E+00  0.50840E+03    0.76208E-01  0.63792E-01 -0.14000E+00  0.00000E+00  0.00000E+00  0.00000E+00    0.00000E+00  0.00000E+00 -0.50806E+03 -0.62648E+01 -0.81585E+01  0.32863E+01
  0.14988E+00  0.51406E+03    0.81464E-01  0.68536E-01 -0.15000E+00  0.00000E+00  0.00000E+00  0.00000E+00    0.00000E+00  0.00000E+00 -0.51372E+03 -0.64037E+01 -0.79611E+01  0.33030E+01
          Evm          Svm            E11          E22          E33          E23          E13          E12         SCAU11       SCAU22       SCAU33       SCAU23       SCAU13       SCAU12      TEMP
  0.14988E+00  0.51416E+03    0.81464E-01  0.68536E-01 -0.15000E+00  0.00000E+00  0.00000E+00  0.00000E+00    0.00000E+00  0.00000E+00 -0.51381E+03 -0.64575E+01 -0.81069E+01  0.32918E+01
  0.15988E+00  0.51908E+03    0.86686E-01  0.73314E-01 -0.16000E+00  0.00000E+00  0.00000E+00  0.00000E+00    0.00000E+00  0.00000E+00 -0.51875E+03 -0.61771E+01 -0.80111E+01  0.34854E+01
  0.16987E+00  0.52386E+03    0.91875E-01  0.78125E-01 -0.17000E+00  0.00000E+00  0.00000E+00  0.00000E+00    0.00000E+00  0.00000E+00 -0.52355E+03 -0.60361E+01 -0.78017E+01  0.36478E+01
  0.17987E+00  0.52841E+03    0.97038E-01  0.82962E-01 -0.18000E+00  0.00000E+00  0.00000E+00  0.00000E+00    0.00000E+00  0.00000E+00 -0.52810E+03 -0.58966E+01 -0.77114E+01  0.37298E+01
  0.18986E+00  0.53289E+03    0.10217E+00  0.87826E-01 -0.19000E+00  0.00000E+00  0.00000E+00  0.00000E+00    0.00000E+00  0.00000E+00 -0.53260E+03 -0.55681E+01 -0.75308E+01  0.39282E+01
  0.19985E+00  0.53721E+03    0.10729E+00  0.92711E-01 -0.20000E+00  0.00000E+00  0.00000E+00  0.00000E+00    0.00000E+00  0.00000E+00 -0.53693E+03 -0.55994E+01 -0.71447E+01  0.40242E+01
  0.20985E+00  0.54152E+03    0.11239E+00  0.97606E-01 -0.21000E+00  0.00000E+00  0.00000E+00  0.00000E+00    0.00000E+00  0.00000E+00 -0.54126E+03 -0.55743E+01 -0.67993E+01  0.41328E+01
  0.21984E+00  0.54574E+03    0.11748E+00  0.10252E+00 -0.22000E+00  0.00000E+00  0.00000E+00  0.00000E+00    0.00000E+00  0.00000E+00 -0.54550E+03 -0.54559E+01 -0.64461E+01  0.42037E+01
  0.22984E+00  0.54987E+03    0.12256E+00  0.10744E+00 -0.23000E+00  0.00000E+00  0.00000E+00  0.00000E+00    0.00000E+00  0.00000E+00 -0.54964E+03 -0.52488E+01 -0.62724E+01  0.42644E+01
  0.23984E+00  0.55401E+03    0.12762E+00  0.11238E+00 -0.24000E+00  0.00000E+00  0.00000E+00  0.00000E+00    0.00000E+00  0.00000E+00 -0.55380E+03 -0.50469E+01 -0.59024E+01  0.42711E+01
  0.24983E+00  0.55824E+03    0.13267E+00  0.11733E+00 -0.25000E+00  0.00000E+00  0.00000E+00  0.00000E+00    0.00000E+00  0.00000E+00 -0.55804E+03 -0.49368E+01 -0.55744E+01  0.43052E+01
  0.25983E+00  0.56247E+03    0.13771E+00  0.12229E+00 -0.26000E+00  0.00000E+00  0.00000E+00  0.00000E+00    0.00000E+00  0.00000E+00 -0.56228E+03 -0.48807E+01 -0.53316E+01  0.43288E+01
  0.26983E+00  0.56679E+03    0.14274E+00  0.12726E+00 -0.27000E+00  0.00000E+00  0.00000E+00  0.00000E+00    0.00000E+00  0.00000E+00 -0.56662E+03 -0.46358E+01 -0.49806E+01  0.43358E+01
  0.27982E+00  0.57073E+03    0.14777E+00  0.13223E+00 -0.28000E+00  0.00000E+00  0.00000E+00  0.00000E+00    0.00000E+00  0.00000E+00 -0.57056E+03 -0.45867E+01 -0.49151E+01  0.43658E+01
  0.28982E+00  0.57513E+03    0.15278E+00  0.13722E+00 -0.29000E+00  0.00000E+00  0.00000E+00  0.00000E+00    0.00000E+00  0.00000E+00 -0.57498E+03 -0.43786E+01 -0.46453E+01  0.44247E+01
  0.29982E+00  0.57940E+03    0.15780E+00  0.14220E+00 -0.30000E+00  0.00000E+00  0.00000E+00  0.00000E+00    0.00000E+00  0.00000E+00 -0.57925E+03 -0.43340E+01 -0.44450E+01  0.44489E+01
