          Evm          Svm            E11          E22          E33          E23          E13          E12         SDEV11       SDEV22       SDEV33       SDEV23       SDEV13       SDEV12      TEMP
  0.00000E+00  0.11668E+03    0.00000E+00  0.00000E+00  0.00000E+00  0.00000E+00  0.00000E+00  0.00000E+00    0.67158E+02  0.40699E+00 -0.67565E+02 -0.70080E+00  0.22493E+00  0.10945E+00      298.00
  0.11546E-01  0.11671E+03    0.10000E-01  0.55511E-18 -0.10000E-01  0.00000E+00  0.00000E+00  0.00000E+00    0.67333E+02  0.89447E-01 -0.67422E+02 -0.69667E+00  0.26720E+00  0.77193E-01      298.00
  0.23092E-01  0.11670E+03    0.20000E-01  0.11102E-17 -0.20000E-01  0.00000E+00  0.00000E+00  0.00000E+00    0.67470E+02 -0.19365E+00 -0.67276E+02 -0.68938E+00  0.27266E+00  0.56226E-01      298.00
  0.34639E-01  0.11672E+03    0.30000E-01  0.16653E-17 -0.30000E-01  0.00000E+00  0.00000E+00  0.00000E+00    0.67617E+02 -0.47350E+00 -0.67144E+02 -0.68637E+00  0.27503E+00  0.47104E-01      298.00
  0.46185E-01  0.11677E+03    0.40000E-01  0.22204E-17 -0.40000E-01  0.00000E+00  0.00000E+00  0.00000E+00    0.67782E+02 -0.74888E+00 -0.67033E+02 -0.68885E+00  0.28312E+00  0.45967E-01      298.00
  0.57731E-01  0.11682E+03    0.50000E-01  0.27756E-17 -0.50000E-01  0.00000E+00  0.00000E+00  0.00000E+00    0.67952E+02 -0.10260E+01 -0.66926E+02 -0.69072E+00  0.28820E+00  0.48648E-01      298.00
  0.69276E-01  0.11690E+03    0.60000E-01  0.33307E-17 -0.60000E-01  0.00000E+00  0.00000E+00  0.00000E+00    0.68130E+02 -0.13016E+01 -0.66829E+02 -0.69410E+00  0.29333E+00  0.57817E-01      298.00
  0.80821E-01  0.11700E+03    0.70000E-01  0.38858E-17 -0.70000E-01  0.00000E+00  0.00000E+00  0.00000E+00    0.68318E+02 -0.15760E+01 -0.66742E+02 -0.69880E+00  0.29860E+00  0.73185E-01      298.00
  0.92364E-01  0.11711E+03    0.80000E-01  0.44409E-17 -0.80000E-01  0.00000E+00  0.00000E+00  0.00000E+00    0.68513E+02 -0.18489E+01 -0.66664E+02 -0.70461E+00  0.30396E+00  0.94825E-01      298.00
  0.10391E+00  0.11723E+03    0.90000E-01  0.49960E-17 -0.90000E-01  0.00000E+00  0.00000E+00  0.00000E+00    0.68716E+02 -0.21203E+01 -0.66596E+02 -0.71138E+00  0.30938E+00  0.12287E+00      298.00
  0.11545E+00  0.11738E+03    0.10000E+00  0.55511E-17 -0.10000E+00  0.00000E+00  0.00000E+00  0.00000E+00    0.68926E+02 -0.23900E+01 -0.66536E+02 -0.71892E+00  0.31485E+00  0.15746E+00      298.00
  0.12699E+00  0.11753E+03    0.11000E+00  0.61062E-17 -0.11000E+00  0.00000E+00  0.00000E+00  0.00000E+00    0.69142E+02 -0.26579E+01 -0.66484E+02 -0.72709E+00  0.32036E+00  0.19874E+00      298.00
  0.13853E+00  0.11770E+03    0.12000E+00  0.66613E-17 -0.12000E+00  0.00000E+00  0.00000E+00  0.00000E+00    0.69364E+02 -0.29237E+01 -0.66440E+02 -0.73572E+00  0.32592E+00  0.24682E+00      298.00
  0.15007E+00  0.11788E+03    0.13000E+00  0.72164E-17 -0.13000E+00  0.00000E+00  0.00000E+00  0.00000E+00    0.69590E+02 -0.31873E+01 -0.66403E+02 -0.74468E+00  0.33154E+00  0.30184E+00      298.00
  0.16160E+00  0.11807E+03    0.14000E+00  0.77716E-17 -0.14000E+00  0.00000E+00  0.00000E+00  0.00000E+00    0.69821E+02 -0.34483E+01 -0.66373E+02 -0.75382E+00  0.33725E+00  0.36391E+00      298.00
  0.17314E+00  0.11827E+03    0.15000E+00  0.83267E-17 -0.15000E+00  0.00000E+00  0.00000E+00  0.00000E+00    0.70056E+02 -0.37067E+01 -0.66349E+02 -0.76300E+00  0.34306E+00  0.43302E+00      298.00
  0.18467E+00  0.11848E+03    0.16000E+00  0.88818E-17 -0.16000E+00  0.00000E+00  0.00000E+00  0.00000E+00    0.70293E+02 -0.39619E+01 -0.66332E+02 -0.77209E+00  0.34901E+00  0.50933E+00      298.00
  0.19620E+00  0.11870E+03    0.17000E+00  0.94369E-17 -0.17000E+00  0.00000E+00  0.00000E+00  0.00000E+00    0.70533E+02 -0.42137E+01 -0.66319E+02 -0.78103E+00  0.35516E+00  0.59301E+00      298.00
  0.20773E+00  0.11886E+03    0.18000E+00  0.99920E-17 -0.18000E+00  0.00000E+00  0.00000E+00  0.00000E+00    0.70707E+02 -0.44025E+01 -0.66305E+02 -0.79647E+00  0.36458E+00  0.72464E+00      298.00
  0.21926E+00  0.11915E+03    0.19000E+00  0.10547E-16 -0.19000E+00  0.00000E+00  0.00000E+00  0.00000E+00    0.71005E+02 -0.46919E+01 -0.66313E+02 -0.80300E+00  0.37214E+00  0.80065E+00      298.00
  0.23079E+00  0.11938E+03    0.20000E+00  0.11102E-16 -0.20000E+00  0.00000E+00  0.00000E+00  0.00000E+00    0.71252E+02 -0.49407E+01 -0.66312E+02 -0.80770E+00  0.37670E+00  0.89420E+00      298.00
  0.24231E+00  0.11962E+03    0.21000E+00  0.11657E-16 -0.21000E+00  0.00000E+00  0.00000E+00  0.00000E+00    0.71494E+02 -0.51787E+01 -0.66315E+02 -0.81371E+00  0.38283E+00  0.10035E+01      298.00
  0.25383E+00  0.11993E+03    0.22000E+00  0.12212E-16 -0.22000E+00  0.00000E+00  0.00000E+00  0.00000E+00    0.71741E+02 -0.53352E+01 -0.66406E+02 -0.83741E+00  0.41094E+00  0.11290E+01      298.00
  0.26535E+00  0.12015E+03    0.23000E+00  0.12768E-16 -0.23000E+00  0.00000E+00  0.00000E+00  0.00000E+00    0.71967E+02 -0.55660E+01 -0.66401E+02 -0.84994E+00  0.42583E+00  0.12695E+01      298.00
  0.27686E+00  0.12039E+03    0.24000E+00  0.13323E-16 -0.24000E+00  0.00000E+00  0.00000E+00  0.00000E+00    0.72195E+02 -0.57831E+01 -0.66412E+02 -0.85503E+00  0.43282E+00  0.14084E+01      298.00
  0.28838E+00  0.12061E+03    0.25000E+00  0.13878E-16 -0.25000E+00  0.00000E+00  0.00000E+00  0.00000E+00    0.72416E+02 -0.59957E+01 -0.66420E+02 -0.85874E+00  0.43902E+00  0.15561E+01      298.00
  0.29989E+00  0.12084E+03    0.26000E+00  0.14433E-16 -0.26000E+00  0.00000E+00  0.00000E+00  0.00000E+00    0.72628E+02 -0.61917E+01 -0.66436E+02 -0.85248E+00  0.43354E+00  0.16782E+01      298.00
  0.31140E+00  0.12108E+03    0.27000E+00  0.14988E-16 -0.27000E+00  0.00000E+00  0.00000E+00  0.00000E+00    0.72852E+02 -0.63991E+01 -0.66453E+02 -0.86408E+00  0.45385E+00  0.18659E+01      298.00
  0.32290E+00  0.12120E+03    0.28000E+00  0.15543E-16 -0.28000E+00  0.00000E+00  0.00000E+00  0.00000E+00    0.72998E+02 -0.65794E+01 -0.66419E+02 -0.84252E+00  0.42916E+00  0.20661E+01      298.00
  0.33440E+00  0.12143E+03    0.29000E+00  0.16098E-16 -0.29000E+00  0.00000E+00  0.00000E+00  0.00000E+00    0.73199E+02 -0.67481E+01 -0.66451E+02 -0.84295E+00  0.43413E+00  0.21931E+01      298.00
  0.34590E+00  0.12163E+03    0.30000E+00  0.16653E-16 -0.30000E+00  0.00000E+00  0.00000E+00  0.00000E+00    0.73394E+02 -0.69512E+01 -0.66442E+02 -0.84314E+00  0.44817E+00  0.24111E+01      298.00
  0.35740E+00  0.12187E+03    0.31000E+00  0.17208E-16 -0.31000E+00  0.00000E+00  0.00000E+00  0.00000E+00    0.73598E+02 -0.71170E+01 -0.66481E+02 -0.84331E+00  0.46109E+00  0.25798E+01      298.00
  0.36889E+00  0.12210E+03    0.32000E+00  0.17764E-16 -0.32000E+00  0.00000E+00  0.00000E+00  0.00000E+00    0.73798E+02 -0.72904E+01 -0.66508E+02 -0.83890E+00  0.47058E+00  0.27446E+01      298.00
  0.38039E+00  0.12233E+03    0.33000E+00  0.18319E-16 -0.33000E+00  0.00000E+00  0.00000E+00  0.00000E+00    0.73990E+02 -0.74564E+01 -0.66533E+02 -0.83395E+00  0.48069E+00  0.29145E+01      298.00
  0.39187E+00  0.12254E+03    0.34000E+00  0.18874E-16 -0.34000E+00  0.00000E+00  0.00000E+00  0.00000E+00    0.74174E+02 -0.76145E+01 -0.66560E+02 -0.82837E+00  0.49134E+00  0.30873E+01      298.00
  0.40336E+00  0.12273E+03    0.35000E+00  0.19429E-16 -0.35000E+00  0.00000E+00  0.00000E+00  0.00000E+00    0.74354E+02 -0.78049E+01 -0.66549E+02 -0.82558E+00  0.52068E+00  0.33348E+01      298.00
  0.41484E+00  0.12294E+03    0.36000E+00  0.19984E-16 -0.36000E+00  0.00000E+00  0.00000E+00  0.00000E+00    0.74516E+02 -0.79321E+01 -0.66584E+02 -0.81907E+00  0.53362E+00  0.35147E+01      298.00
  0.42632E+00  0.12312E+03    0.37000E+00  0.20539E-16 -0.37000E+00  0.00000E+00  0.00000E+00  0.00000E+00    0.74666E+02 -0.80558E+01 -0.66610E+02 -0.81077E+00  0.54439E+00  0.36969E+01      298.00
  0.43779E+00  0.12330E+03    0.38000E+00  0.21094E-16 -0.38000E+00  0.00000E+00  0.00000E+00  0.00000E+00    0.74807E+02 -0.81711E+01 -0.66636E+02 -0.80229E+00  0.55619E+00  0.38801E+01      298.00
  0.44926E+00  0.12347E+03    0.39000E+00  0.21649E-16 -0.39000E+00  0.00000E+00  0.00000E+00  0.00000E+00    0.74942E+02 -0.82784E+01 -0.66663E+02 -0.79319E+00  0.56814E+00  0.40632E+01      298.00
  0.46073E+00  0.12371E+03    0.40000E+00  0.22204E-16 -0.40000E+00  0.00000E+00  0.00000E+00  0.00000E+00    0.75103E+02 -0.83605E+01 -0.66743E+02 -0.78701E+00  0.57439E+00  0.42129E+01      298.00
  0.47220E+00  0.12389E+03    0.41000E+00  0.22760E-16 -0.41000E+00  0.00000E+00  0.00000E+00  0.00000E+00    0.75251E+02 -0.84906E+01 -0.66761E+02 -0.77623E+00  0.59935E+00  0.43906E+01      298.00
  0.48366E+00  0.12401E+03    0.42000E+00  0.23315E-16 -0.42000E+00  0.00000E+00  0.00000E+00  0.00000E+00    0.75345E+02 -0.85746E+01 -0.66771E+02 -0.76465E+00  0.61042E+00  0.45824E+01      298.00
  0.49512E+00  0.12416E+03    0.43000E+00  0.23870E-16 -0.43000E+00  0.00000E+00  0.00000E+00  0.00000E+00    0.75446E+02 -0.86463E+01 -0.66800E+02 -0.75462E+00  0.62403E+00  0.47642E+01      298.00
  0.50658E+00  0.12430E+03    0.44000E+00  0.24425E-16 -0.44000E+00  0.00000E+00  0.00000E+00  0.00000E+00    0.75544E+02 -0.87150E+01 -0.66830E+02 -0.74374E+00  0.63683E+00  0.49395E+01      298.00
  0.51803E+00  0.12440E+03    0.45000E+00  0.24980E-16 -0.45000E+00  0.00000E+00  0.00000E+00  0.00000E+00    0.75593E+02 -0.87300E+01 -0.66863E+02 -0.73025E+00  0.63278E+00  0.51456E+01      298.00
  0.52948E+00  0.12450E+03    0.46000E+00  0.25535E-16 -0.46000E+00  0.00000E+00  0.00000E+00  0.00000E+00    0.75667E+02 -0.87951E+01 -0.66872E+02 -0.71765E+00  0.62885E+00  0.53371E+01      298.00
  0.54093E+00  0.12467E+03    0.47000E+00  0.26090E-16 -0.47000E+00  0.00000E+00  0.00000E+00  0.00000E+00    0.75785E+02 -0.88694E+01 -0.66916E+02 -0.70307E+00  0.64862E+00  0.54642E+01      298.00
  0.55238E+00  0.12467E+03    0.48000E+00  0.26645E-16 -0.48000E+00  0.00000E+00  0.00000E+00  0.00000E+00    0.75765E+02 -0.88656E+01 -0.66899E+02 -0.68905E+00  0.66101E+00  0.56943E+01      298.00
  0.56382E+00  0.12478E+03    0.49000E+00  0.27200E-16 -0.49000E+00  0.00000E+00  0.00000E+00  0.00000E+00    0.75835E+02 -0.89020E+01 -0.66933E+02 -0.67780E+00  0.66541E+00  0.58601E+01      298.00
  0.57526E+00  0.12493E+03    0.50000E+00  0.27756E-16 -0.50000E+00  0.00000E+00  0.00000E+00  0.00000E+00    0.75928E+02 -0.89510E+01 -0.66977E+02 -0.66356E+00  0.68493E+00  0.59715E+01      298.00
