          Evm           Svm             E11           E22           E33           E23           E13           E12          SCAU11        SCAU22        SCAU33        SCAU23        SCAU13         SCAU12       TEMP
     0.000000    201.550000        0.000000      0.000000      0.000000      0.000000      0.000000      0.000000        0.000000      0.000000   -201.230000     -3.914800     -5.207900      1.125000
     0.009984    269.190000        0.005722      0.004278     -0.010000      0.000000      0.000000      0.000000        0.000000      0.000000   -269.050000     -3.124900     -3.649400      1.452900
     0.019979    310.950000        0.011225      0.008776     -0.020000      0.000000      0.000000      0.000000        0.000000      0.000000   -310.760000     -3.880600     -4.610600      1.674700
     0.029973    344.120000        0.016734      0.013266     -0.030000      0.000000      0.000000      0.000000        0.000000      0.000000   -343.880000     -4.598800     -5.606200      1.853700
     0.039965    372.460000        0.022245      0.017755     -0.040000      0.000000      0.000000      0.000000        0.000000      0.000000   -372.180000     -5.122900     -6.340000      2.006700
     0.049958    396.910000        0.027747      0.022253     -0.050000      0.000000      0.000000      0.000000        0.000000      0.000000   -396.590000     -5.608600     -6.986100      2.142700
     0.059950    418.360000        0.033231      0.026769     -0.060000      0.000000      0.000000      0.000000        0.000000      0.000000   -418.020000     -5.774100     -7.451600      2.257200
     0.069942    436.920000        0.038693      0.031307     -0.070000      0.000000      0.000000      0.000000        0.000000      0.000000   -436.580000     -5.751100     -7.642600      2.401300
     0.079934    452.300000        0.044125      0.035875     -0.080000      0.000000      0.000000      0.000000        0.000000      0.000000   -451.960000     -5.925900     -7.929400      2.496600
     0.089926    465.170000        0.049528      0.040472     -0.090000      0.000000      0.000000      0.000000        0.000000      0.000000   -464.830000     -6.062600     -7.935500      2.616200
     0.099919    476.660000        0.054914      0.045086     -0.100000      0.000000      0.000000      0.000000        0.000000      0.000000   -476.320000     -6.017200     -7.939300      2.765200
     0.109910    486.630000        0.060273      0.049727     -0.110000      0.000000      0.000000      0.000000        0.000000      0.000000   -486.290000     -6.020800     -7.957400      2.895100
     0.119910    495.030000        0.065602      0.054398     -0.120000      0.000000      0.000000      0.000000        0.000000      0.000000   -494.700000     -6.188300     -7.860300      2.990400
     0.129900    502.050000        0.070916      0.059084     -0.130000      0.000000      0.000000      0.000000        0.000000      0.000000   -501.710000     -6.360700     -8.014800      3.133900
     0.139890    508.400000        0.076208      0.063792     -0.140000      0.000000      0.000000      0.000000        0.000000      0.000000   -508.060000     -6.264800     -8.158500      3.286300
     0.149880    514.060000        0.081464      0.068536     -0.150000      0.000000      0.000000      0.000000        0.000000      0.000000   -513.720000     -6.403700     -7.961100      3.303000
